3199.19925	0.15643
3198.68400	0.15622
3198.16875	0.15635
3197.65349	0.15675
3197.13824	0.15709
3196.62299	0.15690
3196.10774	0.15647
3195.59249	0.15651
3195.07723	0.15687
3194.56198	0.15697
3194.04673	0.15658
3193.53148	0.15606
3193.01623	0.15587
3192.50097	0.15619
3191.98572	0.15673
3191.47047	0.15691
3190.95522	0.15649
3190.43997	0.15605
3189.92471	0.15625
3189.40946	0.15666
3188.89421	0.15663
3188.37896	0.15627
3187.86371	0.15599
3187.34845	0.15620
3186.83320	0.15675
3186.31795	0.15698
3185.80270	0.15678
3185.28745	0.15654
3184.77220	0.15642
3184.25694	0.15654
3183.74169	0.15678
3183.22644	0.15689
3182.71119	0.15690
3182.19594	0.15691
3181.68068	0.15691
3181.16543	0.15686
3180.65018	0.15669
3180.13493	0.15640
3179.61968	0.15618
3179.10442	0.15624
3178.58917	0.15653
3178.07392	0.15666
3177.55867	0.15642
3177.04342	0.15617
3176.52816	0.15641
3176.01291	0.15698
3175.49766	0.15730
3174.98241	0.15702
3174.46716	0.15642
3173.95190	0.15607
3173.43665	0.15627
3172.92140	0.15679
3172.40615	0.15700
3171.89090	0.15671
3171.37565	0.15648
3170.86039	0.15663
3170.34514	0.15681
3169.82989	0.15680
3169.31464	0.15660
3168.79939	0.15636
3168.28413	0.15632
3167.76888	0.15670
3167.25363	0.15718
3166.73838	0.15710
3166.22313	0.15656
3165.70787	0.15616
3165.19262	0.15633
3164.67737	0.15694
3164.16212	0.15708
3163.64687	0.15645
3163.13161	0.15601
3162.61636	0.15631
3162.10111	0.15679
3161.58586	0.15677
3161.07061	0.15643
3160.55535	0.15643
3160.04010	0.15675
3159.52485	0.15694
3159.00960	0.15687
3158.49435	0.15668
3157.97909	0.15644
3157.46384	0.15629
3156.94859	0.15656
3156.43334	0.15700
3155.91809	0.15706
3155.40284	0.15663
3154.88758	0.15617
3154.37233	0.15632
3153.85708	0.15680
3153.34183	0.15697
3152.82658	0.15678
3152.31132	0.15644
3151.79607	0.15629
3151.28082	0.15664
3150.76557	0.15706
3150.25032	0.15696
3149.73506	0.15659
3149.21981	0.15645
3148.70456	0.15665
3148.18931	0.15695
3147.67406	0.15697
3147.15880	0.15652
3146.64355	0.15604
3146.12830	0.15610
3145.61305	0.15655
3145.09780	0.15685
3144.58254	0.15675
3144.06729	0.15651
3143.55204	0.15646
3143.03679	0.15657
3142.52154	0.15668
3142.00628	0.15656
3141.49103	0.15631
3140.97578	0.15638
3140.46053	0.15683
3139.94528	0.15688
3139.43003	0.15636
3138.91477	0.15598
3138.39952	0.15612
3137.88427	0.15662
3137.36902	0.15705
3136.85377	0.15698
3136.33851	0.15656
3135.82326	0.15629
3135.30801	0.15645
3134.79276	0.15664
3134.27751	0.15640
3133.76225	0.15592
3133.24700	0.15568
3132.73175	0.15594
3132.21650	0.15639
3131.70125	0.15657
3131.18599	0.15645
3130.67074	0.15634
3130.15549	0.15652
3129.64024	0.15677
3129.12499	0.15669
3128.60973	0.15635
3128.09448	0.15600
3127.57923	0.15583
3127.06398	0.15602
3126.54873	0.15633
3126.03347	0.15638
3125.51822	0.15616
3125.00297	0.15604
3124.48772	0.15629
3123.97247	0.15674
3123.45722	0.15687
3122.94196	0.15639
3122.42671	0.15584
3121.91146	0.15594
3121.39621	0.15653
3120.88096	0.15706
3120.36570	0.15733
3119.85045	0.15726
3119.33520	0.15689
3118.81995	0.15659
3118.30470	0.15659
3117.78944	0.15670
3117.27419	0.15648
3116.75894	0.15615
3116.24369	0.15612
3115.72844	0.15635
3115.21318	0.15652
3114.69793	0.15635
3114.18268	0.15602
3113.66743	0.15611
3113.15218	0.15656
3112.63692	0.15671
3112.12167	0.15647
3111.60642	0.15611
3111.09117	0.15595
3110.57592	0.15656
3110.06067	0.15809
3109.54541	0.15928
3109.03016	0.15902
3108.51491	0.15815
3107.99966	0.15785
3107.48441	0.15804
3106.96915	0.15789
3106.45390	0.15706
3105.93865	0.15634
3105.42340	0.15633
3104.90815	0.15657
3104.39289	0.15656
3103.87764	0.15619
3103.36239	0.15567
3102.84714	0.15553
3102.33189	0.15593
3101.81663	0.15630
3101.30138	0.15621
3100.78613	0.15591
3100.27088	0.15589
3099.75563	0.15633
3099.24037	0.15791
3098.72512	0.16166
3098.20987	0.16525
3097.69462	0.16497
3097.17937	0.16225
3096.66411	0.16066
3096.14886	0.16073
3095.63361	0.16050
3095.11836	0.15908
3094.60311	0.15781
3094.08786	0.15733
3093.57260	0.15687
3093.05735	0.15614
3092.54210	0.15568
3092.02685	0.15575
3091.51160	0.15603
3090.99634	0.15611
3090.48109	0.15604
3089.96584	0.15587
3089.45059	0.15573
3088.93534	0.15582
3088.42008	0.15605
3087.90483	0.15632
3087.38958	0.15796
3086.87433	0.16533
3086.35908	0.17748
3085.84382	0.18259
3085.32857	0.17672
3084.81332	0.17001
3084.29807	0.16889
3083.78282	0.16997
3083.26756	0.16791
3082.75231	0.16351
3082.23706	0.16000
3081.72181	0.15783
3081.20656	0.15663
3080.69130	0.15643
3080.17605	0.15667
3079.66080	0.15648
3079.14555	0.15589
3078.63030	0.15554
3078.11505	0.15588
3077.59979	0.15652
3077.08454	0.15682
3076.56929	0.15635
3076.05404	0.15561
3075.53879	0.15560
3075.02353	0.15672
3074.50828	0.16220
3073.99303	0.18023
3073.47778	0.20471
3072.96253	0.21079
3072.44727	0.19632
3071.93202	0.18442
3071.41677	0.18528
3070.90152	0.18809
3070.38627	0.18208
3069.87101	0.17209
3069.35576	0.16515
3068.84051	0.16127
3068.32526	0.15893
3067.81001	0.15763
3067.29475	0.15694
3066.77950	0.15656
3066.26425	0.15632
3065.74900	0.15599
3065.23375	0.15561
3064.71850	0.15573
3064.20324	0.15634
3063.68799	0.15673
3063.17274	0.15662
3062.65749	0.15658
3062.14224	0.15705
3061.62698	0.15829
3061.11173	0.16445
3060.59648	0.18893
3060.08123	0.23219
3059.56598	0.25594
3059.05072	0.23820
3058.53547	0.21426
3058.02022	0.21295
3057.50497	0.22174
3056.98972	0.21461
3056.47446	0.19421
3055.95921	0.17757
3055.44396	0.16825
3054.92871	0.16299
3054.41346	0.15968
3053.89820	0.15779
3053.38295	0.15716
3052.86770	0.15730
3052.35245	0.15742
3051.83720	0.15720
3051.32194	0.15687
3050.80669	0.15683
3050.29144	0.15714
3049.77619	0.15737
3049.26094	0.15736
3048.74569	0.15743
3048.23043	0.15823
3047.71518	0.16005
3047.19993	0.16454
3046.68468	0.18286
3046.16943	0.23422
3045.65417	0.30183
3045.13892	0.31929
3044.62367	0.28107
3044.10842	0.25434
3043.59317	0.26416
3043.07791	0.27308
3042.56266	0.24892
3042.04741	0.21338
3041.53216	0.18906
3041.01691	0.17531
3040.50165	0.16724
3039.98640	0.16271
3039.47115	0.16055
3038.95590	0.15944
3038.44065	0.15865
3037.92539	0.15812
3037.41014	0.15810
3036.89489	0.15836
3036.37964	0.15866
3035.86439	0.15876
3035.34913	0.15885
3034.83388	0.15920
3034.31863	0.15990
3033.80338	0.16087
3033.28813	0.16246
3032.77288	0.16569
3032.25762	0.17439
3031.74237	0.20339
3031.22712	0.27663
3030.71187	0.37721
3030.19662	0.41348
3029.68136	0.36339
3029.16611	0.32426
3028.65086	0.33807
3028.13561	0.35060
3027.62036	0.31043
3027.10510	0.25217
3026.58985	0.21249
3026.07460	0.19057
3025.55935	0.17784
3025.04410	0.17010
3024.52884	0.16562
3024.01359	0.16323
3023.49834	0.16201
3022.98309	0.16149
3022.46784	0.16135
3021.95258	0.16138
3021.43733	0.16166
3020.92208	0.16214
3020.40683	0.16263
3019.89158	0.16310
3019.37632	0.16380
3018.86107	0.16500
3018.34582	0.16696
3017.83057	0.17008
3017.31532	0.17551
3016.80007	0.18700
3016.28481	0.21712
3015.76956	0.29188
3015.25431	0.42164
3014.73906	0.53092
3014.22381	0.51348
3013.70855	0.44593
3013.19330	0.43932
3012.67805	0.46804
3012.16280	0.43331
3011.64755	0.34356
3011.13229	0.26929
3010.61704	0.22543
3010.10179	0.20042
3009.58654	0.18583
3009.07129	0.17711
3008.55603	0.17176
3008.04078	0.16885
3007.52553	0.16759
3007.01028	0.16703
3006.49503	0.16673
3005.97977	0.16675
3005.46452	0.16682
3004.94927	0.16690
3004.43402	0.16746
3003.91877	0.16872
3003.40352	0.17033
3002.88826	0.17214
3002.37301	0.17496
3001.85776	0.17948
3001.34251	0.18637
3000.82726	0.19827
3000.31200	0.22354
2999.79675	0.28139
2999.28150	0.39763
2998.76625	0.56755
2998.25100	0.68730
2997.73574	0.65497
2997.22049	0.59304
2996.70524	0.60706
2996.18999	0.62257
2995.67474	0.53072
2995.15948	0.39910
2994.64423	0.30564
2994.12898	0.25134
2993.61373	0.21970
2993.09848	0.20062
2992.58322	0.18898
2992.06797	0.18218
2991.55272	0.17844
2991.03747	0.17629
2990.52222	0.17494
2990.00696	0.17415
2989.49171	0.17372
2988.97646	0.17360
2988.46121	0.17390
2987.94596	0.17468
2987.43071	0.17588
2986.91545	0.17767
2986.40020	0.18018
2985.88495	0.18337
2985.36970	0.18789
2984.85445	0.19492
2984.33919	0.20602
2983.82394	0.22481
2983.30869	0.26120
2982.79344	0.33524
2982.27819	0.47040
2981.76293	0.66504
2981.24768	0.82968
2980.73243	0.83539
2980.21718	0.77883
2979.70193	0.79348
2979.18667	0.80141
2978.67142	0.66832
2978.15617	0.49006
2977.64092	0.36489
2977.12567	0.29162
2976.61041	0.24848
2976.09516	0.22208
2975.57991	0.20554
2975.06466	0.19544
2974.54941	0.18980
2974.03415	0.18656
2973.51890	0.18421
2973.00365	0.18253
2972.48840	0.18167
2971.97315	0.18140
2971.45790	0.18150
2970.94264	0.18186
2970.42739	0.18247
2969.91214	0.18366
2969.39689	0.18581
2968.88164	0.18894
2968.36638	0.19303
2967.85113	0.19843
2967.33588	0.20623
2966.82063	0.21851
2966.30538	0.23909
2965.79012	0.27643
2965.27487	0.34729
2964.75962	0.47372
2964.24437	0.66652
2963.72912	0.88181
2963.21386	0.98403
2962.69861	0.95027
2962.18336	0.94414
2961.66811	0.96573
2961.15286	0.84150
2960.63760	0.62075
2960.12235	0.44912
2959.60710	0.34541
2959.09185	0.28440
2958.57660	0.24713
2958.06134	0.22364
2957.54609	0.20888
2957.03084	0.19987
2956.51559	0.19437
2956.00034	0.19078
2955.48509	0.18836
2954.96983	0.18676
2954.45458	0.18575
2953.93933	0.18531
2953.42408	0.18534
2952.90883	0.18567
2952.39357	0.18633
2951.87832	0.18759
2951.36307	0.18953
2950.84782	0.19217
2950.33257	0.19572
2949.81731	0.20063
2949.30206	0.20755
2948.78681	0.21785
2948.27156	0.23428
2947.75631	0.26220
2947.24105	0.31289
2946.72580	0.40566
2946.21055	0.56035
2945.69530	0.77499
2945.18005	0.97493
2944.66479	1.02774
2944.14954	0.99667
2943.63429	1.01807
2943.11904	0.99071
2942.60379	0.78761
2942.08854	0.56340
2941.57328	0.41357
2941.05803	0.32547
2940.54278	0.27330
2940.02753	0.24130
2939.51228	0.22113
2938.99702	0.20834
2938.48177	0.20025
2937.96652	0.19503
2937.45127	0.19156
2936.93602	0.18909
2936.42076	0.18719
2935.90551	0.18586
2935.39026	0.18516
2934.87501	0.18486
2934.35976	0.18489
2933.84450	0.18506
2933.32925	0.18527
2932.81400	0.18609
2932.29875	0.18792
2931.78350	0.19044
2931.26824	0.19359
2930.75299	0.19800
2930.23774	0.20422
2929.72249	0.21320
2929.20724	0.22727
2928.69198	0.25141
2928.17673	0.29701
2927.66148	0.38473
2927.14623	0.53606
2926.63098	0.74603
2926.11573	0.92386
2925.60047	0.94406
2925.08522	0.90699
2924.56997	0.92779
2924.05472	0.88733
2923.53947	0.69542
2923.02421	0.49933
2922.50896	0.37235
2921.99371	0.29890
2921.47846	0.25548
2920.96321	0.22870
2920.44795	0.21224
2919.93270	0.20225
2919.41745	0.19590
2918.90220	0.19171
2918.38695	0.18888
2917.87169	0.18676
2917.35644	0.18520
2916.84119	0.18409
2916.32594	0.18331
2915.81069	0.18291
2915.29543	0.18275
2914.78018	0.18266
2914.26493	0.18272
2913.74968	0.18291
2913.23443	0.18342
2912.71917	0.18422
2912.20392	0.18518
2911.68867	0.18650
2911.17342	0.18854
2910.65817	0.19178
2910.14292	0.19658
2909.62766	0.20390
2909.11241	0.21682
2908.59716	0.24292
2908.08191	0.29924
2907.56666	0.41129
2907.05140	0.58392
2906.53615	0.73034
2906.02090	0.72666
2905.50565	0.67048
2904.99040	0.67749
2904.47514	0.66905
2903.95989	0.55040
2903.44464	0.40843
2902.92939	0.31299
2902.41414	0.25844
2901.89888	0.22673
2901.38363	0.20774
2900.86838	0.19658
2900.35313	0.19024
2899.83788	0.18634
2899.32262	0.18358
2898.80737	0.18174
2898.29212	0.18074
2897.77687	0.18020
2897.26162	0.17965
2896.74636	0.17896
2896.23111	0.17828
2895.71586	0.17766
2895.20061	0.17719
2894.68536	0.17694
2894.17011	0.17689
2893.65485	0.17698
2893.13960	0.17694
2892.62435	0.17682
2892.10910	0.17683
2891.59385	0.17689
2891.07859	0.17702
2890.56334	0.17718
2890.04809	0.17719
2889.53284	0.17714
2889.01759	0.17742
2888.50233	0.17798
2887.98708	0.17819
2887.47183	0.17805
2886.95658	0.17812
2886.44133	0.17853
2885.92607	0.17877
2885.41082	0.17870
2884.89557	0.17874
2884.38032	0.17911
2883.86507	0.17965
2883.34981	0.18021
2882.83456	0.18055
2882.31931	0.18070
2881.80406	0.18090
2881.28881	0.18114
2880.77356	0.18145
2880.25830	0.18194
2879.74305	0.18268
2879.22780	0.18355
2878.71255	0.18415
2878.19730	0.18443
2877.68204	0.18476
2877.16679	0.18525
2876.65154	0.18575
2876.13629	0.18611
2875.62104	0.18645
2875.10578	0.18700
2874.59053	0.18757
2874.07528	0.18800
2873.56003	0.18864
2873.04478	0.18964
2872.52952	0.19063
2872.01427	0.19147
2871.49902	0.19238
2870.98377	0.19379
2870.46852	0.19586
2869.95326	0.19846
2869.43801	0.20170
2868.92276	0.20633
2868.40751	0.21378
2867.89226	0.22670
2867.37700	0.25284
2866.86175	0.31101
2866.34650	0.42771
2865.83125	0.60314
2865.31600	0.74116
2864.80075	0.73227
2864.28549	0.68975
2863.77024	0.70123
2863.25499	0.66564
2862.73974	0.53084
2862.22449	0.39869
2861.70923	0.31547
2861.19398	0.26800
2860.67873	0.24019
2860.16348	0.22353
2859.64823	0.21374
2859.13297	0.20815
2858.61772	0.20478
2858.10247	0.20247
2857.58722	0.20104
2857.07197	0.20041
2856.55671	0.20011
2856.04146	0.19992
2855.52621	0.19974
2855.01096	0.19960
2854.49571	0.19978
2853.98045	0.20014
2853.46520	0.20040
2852.94995	0.20074
2852.43470	0.20131
2851.91945	0.20225
2851.40419	0.20357
2850.88894	0.20516
2850.37369	0.20706
2849.85844	0.20919
2849.34319	0.21163
2848.82794	0.21498
2848.31268	0.21965
2847.79743	0.22580
2847.28218	0.23457
2846.76693	0.24904
2846.25168	0.27546
2845.73642	0.32737
2845.22117	0.42753
2844.70592	0.59584
2844.19067	0.80977
2843.67542	0.94915
2843.16016	0.94647
2842.64491	0.94137
2842.12966	0.94236
2841.61441	0.80250
2841.09916	0.59283
2840.58390	0.43879
2840.06865	0.34847
2839.55340	0.29617
2839.03815	0.26470
2838.52290	0.24557
2838.00764	0.23421
2837.49239	0.22745
2836.97714	0.22301
2836.46189	0.21978
2835.94664	0.21767
2835.43139	0.21668
2834.91613	0.21615
2834.40088	0.21543
2833.88563	0.21435
2833.37038	0.21338
2832.85513	0.21314
2832.33987	0.21343
2831.82462	0.21364
2831.30937	0.21379
2830.79412	0.21415
2830.27887	0.21475
2829.76361	0.21571
2829.24836	0.21712
2828.73311	0.21869
2828.21786	0.22035
2827.70261	0.22257
2827.18735	0.22582
2826.67210	0.23018
2826.15685	0.23572
2825.64160	0.24324
2825.12635	0.25485
2824.61109	0.27409
2824.09584	0.30824
2823.58059	0.37307
2823.06534	0.49190
2822.55009	0.68019
2822.03483	0.90196
2821.51958	1.03066
2821.00433	1.03598
2820.48908	1.04885
2819.97383	1.01310
2819.45858	0.81213
2818.94332	0.59014
2818.42807	0.44271
2817.91282	0.35729
2817.39757	0.30718
2816.88232	0.27666
2816.36706	0.25791
2815.85181	0.24654
2815.33656	0.23950
2814.82131	0.23477
2814.30606	0.23139
2813.79080	0.22912
2813.27555	0.22759
2812.76030	0.22630
2812.24505	0.22493
2811.72980	0.22354
2811.21454	0.22266
2810.69929	0.22271
2810.18404	0.22327
2809.66879	0.22358
2809.15354	0.22353
2808.63828	0.22361
2808.12303	0.22424
2807.60778	0.22509
2807.09253	0.22577
2806.57728	0.22661
2806.06202	0.22806
2805.54677	0.23010
2805.03152	0.23250
2804.51627	0.23520
2804.00102	0.23859
2803.48577	0.24354
2802.97051	0.25106
2802.45526	0.26237
2801.94001	0.28016
2801.42476	0.31172
2800.90951	0.37368
2800.39425	0.49078
2799.87900	0.67801
2799.36375	0.89068
2798.84850	0.99546
2798.33325	0.98844
2797.81799	0.99601
2797.30274	0.94179
2796.78749	0.74337
2796.27224	0.54395
2795.75699	0.41584
2795.24173	0.34234
2794.72648	0.29982
2794.21123	0.27472
2793.69598	0.25941
2793.18073	0.24955
2792.66547	0.24319
2792.15022	0.23942
2791.63497	0.23717
2791.11972	0.23540
2790.60447	0.23375
2790.08921	0.23251
2789.57396	0.23171
2789.05871	0.23112
2788.54346	0.23059
2788.02821	0.23022
2787.51296	0.23009
2786.99770	0.23031
2786.48245	0.23081
2785.96720	0.23132
2785.45195	0.23147
2784.93670	0.23136
2784.42144	0.23152
2783.90619	0.23242
2783.39094	0.23382
2782.87569	0.23510
2782.36044	0.23615
2781.84518	0.23737
2781.32993	0.23928
2780.81468	0.24218
2780.29943	0.24593
2779.78418	0.25081
2779.26892	0.25842
2778.75367	0.27132
2778.23842	0.29488
2777.72317	0.34337
2777.20792	0.44215
2776.69266	0.60972
2776.17741	0.79786
2775.66216	0.86977
2775.14691	0.84380
2774.63166	0.84434
2774.11641	0.79954
2773.60115	0.63908
2773.08590	0.47794
2772.57065	0.37619
2772.05540	0.31900
2771.54015	0.28603
2771.02489	0.26668
2770.50964	0.25554
2769.99439	0.24918
2769.47914	0.24526
2768.96389	0.24245
2768.44863	0.24050
2767.93338	0.23957
2767.41813	0.23923
2766.90288	0.23865
2766.38763	0.23778
2765.87237	0.23726
2765.35712	0.23732
2764.84187	0.23762
2764.32662	0.23780
2763.81137	0.23772
2763.29611	0.23768
2762.78086	0.23795
2762.26561	0.23841
2761.75036	0.23893
2761.23511	0.23926
2760.71985	0.23926
2760.20460	0.23949
2759.68935	0.24057
2759.17410	0.24194
2758.65885	0.24279
2758.14360	0.24327
2757.62834	0.24416
2757.11309	0.24603
2756.59784	0.24892
2756.08259	0.25260
2755.56734	0.25734
2755.05208	0.26450
2754.53683	0.27788
2754.02158	0.30852
2753.50633	0.38055
2752.99108	0.51587
2752.47582	0.66938
2751.96057	0.71426
2751.44532	0.67773
2750.93007	0.67437
2750.41482	0.64889
2749.89956	0.53668
2749.38431	0.41792
2748.86906	0.34325
2748.35381	0.30246
2747.83856	0.27967
2747.32330	0.26652
2746.80805	0.25895
2746.29280	0.25520
2745.77755	0.25370
2745.26230	0.25264
2744.74704	0.25145
2744.23179	0.25051
2743.71654	0.25036
2743.20129	0.25097
2742.68604	0.25150
2742.17079	0.25133
2741.65553	0.25090
2741.14028	0.25098
2740.62503	0.25171
2740.10978	0.25251
2739.59453	0.25273
2739.07927	0.25262
2738.56402	0.25287
2738.04877	0.25357
2737.53352	0.25435
2737.01827	0.25487
2736.50301	0.25514
2735.98776	0.25562
2735.47251	0.25666
2734.95726	0.25804
2734.44201	0.25914
2733.92675	0.25963
2733.41150	0.26015
2732.89625	0.26126
2732.38100	0.26294
2731.86575	0.26482
2731.35049	0.26706
2730.83524	0.27062
2730.31999	0.27732
2729.80474	0.29366
2729.28949	0.33973
2728.77423	0.43946
2728.25898	0.55827
2727.74373	0.58955
2727.22848	0.55323
2726.71323	0.54620
2726.19798	0.53295
2725.68272	0.46051
2725.16747	0.37946
2724.65222	0.32882
2724.13697	0.30208
2723.62172	0.28725
2723.10646	0.27868
2722.59121	0.27428
2722.07596	0.27260
2721.56071	0.27217
2721.04546	0.27205
2720.53020	0.27204
2720.01495	0.27223
2719.49970	0.27273
2718.98445	0.27334
2718.46920	0.27369
2717.95394	0.27373
2717.43869	0.27368
2716.92344	0.27393
2716.40819	0.27478
2715.89294	0.27579
2715.37768	0.27623
2714.86243	0.27644
2714.34718	0.27699
2713.83193	0.27779
2713.31668	0.27854
2712.80143	0.27903
2712.28617	0.27921
2711.77092	0.27938
2711.25567	0.27991
2710.74042	0.28082
2710.22517	0.28165
2709.70991	0.28230
2709.19466	0.28310
2708.67941	0.28405
2708.16416	0.28503
2707.64891	0.28600
2707.13365	0.28699
2706.61840	0.28839
2706.10315	0.29063
2705.58790	0.29426
2705.07265	0.30188
2704.55739	0.32746
2704.04214	0.39338
2703.52689	0.47771
2703.01164	0.50065
2702.49639	0.47135
2701.98113	0.46300
2701.46588	0.45672
2700.95063	0.41360
2700.43538	0.36252
2699.92013	0.33026
2699.40487	0.31329
2698.88962	0.30402
2698.37437	0.29910
2697.85912	0.29710
2697.34387	0.29663
2696.82862	0.29659
2696.31336	0.29645
2695.79811	0.29634
2695.28286	0.29682
2694.76761	0.29779
2694.25236	0.29852
2693.73710	0.29854
2693.22185	0.29842
2692.70660	0.29886
2692.19135	0.29977
2691.67610	0.30054
2691.16084	0.30088
2690.64559	0.30115
2690.13034	0.30191
2689.61509	0.30294
2689.09984	0.30361
2688.58458	0.30375
2688.06933	0.30364
2687.55408	0.30371
2687.03883	0.30439
2686.52358	0.30550
2686.00832	0.30607
2685.49307	0.30599
2684.97782	0.30610
2684.46257	0.30690
2683.94732	0.30799
2683.43206	0.30874
2682.91681	0.30908
2682.40156	0.30938
2681.88631	0.31023
2681.37106	0.31156
2680.85581	0.31263
2680.34055	0.31329
2679.82530	0.31557
2679.31005	0.32929
2678.79480	0.37135
2678.27955	0.42740
2677.76429	0.44271
2677.24904	0.42140
2676.73379	0.41320
2676.21854	0.40895
2675.70329	0.38386
2675.18803	0.35393
2674.67278	0.33533
2674.15753	0.32573
2673.64228	0.32074
2673.12703	0.31840
2672.61177	0.31740
2672.09652	0.31693
2671.58127	0.31676
2671.06602	0.31694
2670.55077	0.31735
2670.03551	0.31754
2669.52026	0.31732
2669.00501	0.31725
2668.48976	0.31765
2667.97451	0.31824
2667.45925	0.31867
2666.94400	0.31867
2666.42875	0.31840
2665.91350	0.31837
2665.39825	0.31880
2664.88300	0.31927
2664.36774	0.31919
2663.85249	0.31878
2663.33724	0.31880
2662.82199	0.31938
2662.30674	0.32007
2661.79148	0.32038
2661.27623	0.32036
2660.76098	0.32045
2660.24573	0.32084
2659.73048	0.32125
2659.21522	0.32134
2658.69997	0.32121
2658.18472	0.32122
2657.66947	0.32164
2657.15422	0.32223
2656.63896	0.32235
2656.12371	0.32197
2655.60846	0.32169
2655.09321	0.32206
2654.57796	0.32294
2654.06270	0.32418
2653.54745	0.33081
2653.03220	0.35447
2652.51695	0.38761
2652.00170	0.39701
2651.48645	0.38391
2650.97119	0.37701
2650.45594	0.37219
2649.94069	0.35736
2649.42544	0.34133
2648.91019	0.33196
2648.39493	0.32732
2647.87968	0.32458
2647.36443	0.32305
2646.84918	0.32266
2646.33393	0.32272
2645.81867	0.32257
2645.30342	0.32218
2644.78817	0.32202
2644.27292	0.32243
2643.75767	0.32296
2643.24241	0.32300
2642.72716	0.32249
2642.21191	0.32194
2641.69666	0.32194
2641.18141	0.32240
2640.66615	0.32255
2640.15090	0.32213
2639.63565	0.32167
2639.12040	0.32160
2638.60515	0.32186
2638.08989	0.32214
2637.57464	0.32205
2637.05939	0.32148
2636.54414	0.32106
2636.02889	0.32140
2635.51364	0.32201
2634.99838	0.32191
2634.48313	0.32129
2633.96788	0.32102
2633.45263	0.32117
2632.93738	0.32135
2632.42212	0.32139
2631.90687	0.32121
2631.39162	0.32116
2630.87637	0.32149
2630.36112	0.32189
2629.84586	0.32194
2629.33061	0.32148
2628.81536	0.32079
2628.30011	0.32061
2627.78486	0.32133
2627.26960	0.32516
2626.75435	0.33802
2626.23910	0.35464
2625.72385	0.35789
2625.20860	0.35046
2624.69334	0.34612
2624.17809	0.34223
2623.66284	0.33464
2623.14759	0.32804
2622.63234	0.32479
2622.11708	0.32300
2621.60183	0.32142
2621.08658	0.32026
2620.57133	0.31988
2620.05608	0.31995
2619.54083	0.32000
2619.02557	0.31989
2618.51032	0.31967
2617.99507	0.31952
2617.47982	0.31960
2616.96457	0.31975
2616.44931	0.31963
2615.93406	0.31919
2615.41881	0.31889
2614.90356	0.31901
2614.38831	0.31939
2613.87305	0.31955
2613.35780	0.31925
2612.84255	0.31902
2612.32730	0.31916
2611.81205	0.31940
2611.29679	0.31941
2610.78154	0.31916
2610.26629	0.31895
2609.75104	0.31887
2609.23579	0.31887
2608.72053	0.31880
2608.20528	0.31861
2607.69003	0.31852
2607.17478	0.31872
2606.65953	0.31923
2606.14428	0.31973
2605.62902	0.31964
2605.11377	0.31908
2604.59852	0.31885
2604.08327	0.31920
2603.56802	0.31950
2603.05276	0.31930
2602.53751	0.31896
2602.02226	0.31879
2601.50701	0.31891
2600.99176	0.31933
2600.47650	0.32132
2599.96125	0.32723
